Wavelength,Value
380.0,0.01117027
381.0,0.01364998
382.0,0.01712749
383.0,0.02047181
384.0,0.02358821
385.0,0.02625239
386.0,0.02867926
387.0,0.02804114
388.0,0.02656422
389.0,0.02357038
390.0,0.02050172
391.0,0.01753251
392.0,0.0153725
393.0,0.01376225
394.0,0.01289365
395.0,0.01267705
396.0,0.01272223
397.0,0.01318835
398.0,0.01383697
399.0,0.01471461
400.0,0.01596808
401.0,0.01742192
402.0,0.01948584
403.0,0.02211485
404.0,0.02529678
405.0,0.02909989
406.0,0.03302935
407.0,0.03718662
408.0,0.03969171
409.0,0.04089388
410.0,0.03895718
411.0,0.03598194
412.0,0.03088995
413.0,0.02579622
414.0,0.02071422
415.0,0.01753272
416.0,0.01490157
417.0,0.01322775
418.0,0.01206145
419.0,0.01113462
420.0,0.01036949
421.0,0.009556284
422.0,0.008673086
423.0,0.007693499
424.0,0.006690247
425.0,0.005788041
426.0,0.005042753
427.0,0.004454966
428.0,0.004130229
429.0,0.003895969
430.0,0.003835048
431.0,0.00387973
432.0,0.004008333
433.0,0.004254649
434.0,0.004510368
435.0,0.004777774
436.0,0.005200681
437.0,0.005715094
438.0,0.006284894
439.0,0.006963092
440.0,0.00788384
441.0,0.009016379
442.0,0.01023792
443.0,0.01191978
444.0,0.01387246
445.0,0.01627304
446.0,0.01914052
447.0,0.02216895
448.0,0.02596475
449.0,0.02992861
450.0,0.03415757
451.0,0.03802377
452.0,0.04153039
453.0,0.0441158
454.0,0.0458223
455.0,0.04676134
456.0,0.0463862
457.0,0.0456268
458.0,0.04421059
459.0,0.04285622
460.0,0.04156054
461.0,0.04122045
462.0,0.04127783
463.0,0.04206565
464.0,0.04349899
465.0,0.04523607
466.0,0.04744675
467.0,0.04955928
468.0,0.05155217
469.0,0.05316063
470.0,0.05451506
471.0,0.05477501
472.0,0.05431643
473.0,0.05299726
474.0,0.05072275
475.0,0.04813221
476.0,0.04508121
477.0,0.04190612
478.0,0.03864178
479.0,0.0357042
480.0,0.03303431
481.0,0.03086484
482.0,0.02911219
483.0,0.02760544
484.0,0.02645149
485.0,0.02540445
486.0,0.02458221
487.0,0.02383429
488.0,0.02311582
489.0,0.02228748
490.0,0.02149737
491.0,0.02077206
492.0,0.02009071
493.0,0.01941552
494.0,0.0187608
495.0,0.01820155
496.0,0.01774929
497.0,0.01738182
498.0,0.01707909
499.0,0.01698889
500.0,0.01692311
501.0,0.01688328
502.0,0.01694309
503.0,0.01702179
504.0,0.01712946
505.0,0.01727351
506.0,0.01743606
507.0,0.01763422
508.0,0.01784291
509.0,0.01806911
510.0,0.01827019
511.0,0.01847755
512.0,0.01878961
513.0,0.01906636
514.0,0.01930337
515.0,0.01959762
516.0,0.01988634
517.0,0.02011246
518.0,0.02037687
519.0,0.02066968
520.0,0.02089791
521.0,0.02111327
522.0,0.02130542
523.0,0.0214326
524.0,0.02152426
525.0,0.02154761
526.0,0.02154297
527.0,0.02149281
528.0,0.02141692
529.0,0.02132578
530.0,0.02119021
531.0,0.02100185
532.0,0.02076977
533.0,0.02052524
534.0,0.02027478
535.0,0.02000565
536.0,0.01973688
537.0,0.01946714
538.0,0.01919022
539.0,0.018964
540.0,0.01881816
541.0,0.0186746
542.0,0.01852715
543.0,0.01831125
544.0,0.01816896
545.0,0.01810059
546.0,0.01802397
547.0,0.01794546
548.0,0.01786353
549.0,0.01777273
550.0,0.01767813
551.0,0.01762639
552.0,0.01759589
553.0,0.01759752
554.0,0.01759459
555.0,0.01758973
556.0,0.01757983
557.0,0.01755703
558.0,0.01751802
559.0,0.01759636
560.0,0.01768076
561.0,0.01772048
562.0,0.01779374
563.0,0.0178873
564.0,0.01799449
565.0,0.01805377
566.0,0.01802927
567.0,0.01808119
568.0,0.0181681
569.0,0.01832911
570.0,0.01845614
571.0,0.01854674
572.0,0.01869527
573.0,0.0188476
574.0,0.0189896
575.0,0.01910407
576.0,0.01920294
577.0,0.01941412
578.0,0.01959995
579.0,0.01974626
580.0,0.01992855
581.0,0.0201177
582.0,0.02030486
583.0,0.02049069
584.0,0.02067609
585.0,0.02081485
586.0,0.02096931
587.0,0.02117144
588.0,0.02134539
589.0,0.02150911
590.0,0.02173657
591.0,0.02192684
592.0,0.02207914
593.0,0.0223327
594.0,0.02257562
595.0,0.02267508
596.0,0.02286549
597.0,0.02312201
598.0,0.02325684
599.0,0.02342088
600.0,0.02364942
601.0,0.02380803
602.0,0.0239432
603.0,0.02404438
604.0,0.02420547
605.0,0.02442012
606.0,0.02456679
607.0,0.02470307
608.0,0.02482997
609.0,0.02492394
610.0,0.02500455
611.0,0.02506225
612.0,0.02515282
613.0,0.02528287
614.0,0.02532982
615.0,0.02536238
616.0,0.02541418
617.0,0.02546534
618.0,0.02551905
619.0,0.02550376
620.0,0.02548496
621.0,0.02546306
622.0,0.02543628
623.0,0.02540677
624.0,0.02538613
625.0,0.02534058
626.0,0.02527651
627.0,0.02513265
628.0,0.02500247
629.0,0.02491622
630.0,0.02484858
631.0,0.02477825
632.0,0.0246771
633.0,0.02452847
634.0,0.02433083
635.0,0.02421134
636.0,0.02408619
637.0,0.02392157
638.0,0.02376053
639.0,0.02359249
640.0,0.02332676
641.0,0.02310065
642.0,0.02291707
643.0,0.02270651
644.0,0.02248977
645.0,0.02227071
646.0,0.02204365
647.0,0.02181373
648.0,0.02159466
649.0,0.02136827
650.0,0.02113583
651.0,0.0208602
652.0,0.02057292
653.0,0.02027823
654.0,0.02002011
655.0,0.01978658
656.0,0.01949026
657.0,0.01920619
658.0,0.01894027
659.0,0.01865776
660.0,0.01836208
661.0,0.01802252
662.0,0.01775738
663.0,0.01754807
664.0,0.01722878
665.0,0.01691885
666.0,0.01662872
667.0,0.01638747
668.0,0.01614621
669.0,0.01582854
670.0,0.01553125
671.0,0.01524461
672.0,0.01495011
673.0,0.01467404
674.0,0.01443015
675.0,0.01416854
676.0,0.01390844
677.0,0.01368796
678.0,0.01345446
679.0,0.01321291
680.0,0.01300332
681.0,0.01278419
682.0,0.01254804
683.0,0.01236937
684.0,0.01220888
685.0,0.01204289
686.0,0.01185317
687.0,0.01164373
688.0,0.01151602
689.0,0.01139475
690.0,0.01127542
691.0,0.01118036
692.0,0.0110896
693.0,0.01097942
694.0,0.01089575
695.0,0.01083254
696.0,0.01084497
697.0,0.01084942
698.0,0.01083392
699.0,0.01086076
700.0,0.01090825
701.0,0.01100017
702.0,0.01108362
703.0,0.01115928
704.0,0.01130077
705.0,0.01148391
706.0,0.01174335
707.0,0.01200347
708.0,0.01226478
709.0,0.01253965
710.0,0.01285352
711.0,0.01319601
712.0,0.01357011
713.0,0.0139419
714.0,0.01431221
715.0,0.01476544
716.0,0.01521759
717.0,0.01562423
718.0,0.01609139
719.0,0.01659094
720.0,0.01711564
721.0,0.01764937
722.0,0.01819139
723.0,0.01885576
724.0,0.01955914
725.0,0.02031454
726.0,0.02119493
727.0,0.02210942
728.0,0.02302167
729.0,0.02398813
730.0,0.02498607
731.0,0.02590131
732.0,0.02658932
733.0,0.02697665
734.0,0.02679565
735.0,0.02631059
736.0,0.02519651
737.0,0.02365799
738.0,0.02184927
739.0,0.01958032
740.0,0.01732949
741.0,0.01508802
742.0,0.01298034
743.0,0.01102253
744.0,0.009424653
745.0,0.008061907
746.0,0.006839166
747.0,0.005981147
748.0,0.005215584
749.0,0.004539708
750.0,0.004037012
751.0,0.003595953
752.0,0.003255368
753.0,0.002964348
754.0,0.002695431
755.0,0.002465485
756.0,0.002288454
757.0,0.002149239
758.0,0.002036467
759.0,0.001929549
760.0,0.001830641
761.0,0.001764689
762.0,0.001704674
763.0,0.001642926
764.0,0.001600301
765.0,0.001571184
766.0,0.001579942
767.0,0.001579664
768.0,0.001571118
769.0,0.001593094
770.0,0.001602929
771.0,0.001593103
772.0,0.00158712
773.0,0.001583756
774.0,0.001585573
775.0,0.0015548
776.0,0.00150789
777.0,0.001448861
778.0,0.001400002
779.0,0.001359748
780.0,0.001311719
